#Wave		#Intensity
3199.987305	3.952796
3199.375000	11.858386
3198.762695	11.854590
3198.150391	0.000000
3197.537109	0.000000
3196.923828	7.895485
3196.310547	0.000000
3195.697266	0.000000
3195.083984	11.831899
3194.469727	-3.942710
3193.856445	15.765821
3193.242188	3.940202
3192.627930	11.816849
3192.012695	0.000000
3191.398438	7.872898
3190.783203	3.935200
3190.167969	7.867907
3189.552734	3.932708
3188.937500	3.931463
3188.321289	-3.930220
3187.705078	3.928977
3187.089844	11.783210
3186.472656	3.926497
3185.856445	3.925259
3185.240234	0.000000
3184.623047	3.922786
3184.005859	0.000000
3183.388672	7.840637
3182.771484	19.595432
3182.153320	7.835711
3181.535156	7.833252
3180.916992	15.661591
3180.298828	15.656683
3179.680664	3.912945
3179.062500	-3.911720
3178.443359	3.910497
3177.824219	3.909275
3177.205078	19.540270
3176.585938	19.534172
3175.965820	15.622463
3175.345703	0.000000
3174.725586	23.419096
3174.105469	3.901968
3173.485352	7.801509
3172.865234	3.899542
3172.244141	3.898331
3171.623047	11.691362
3171.001953	-3.895912
3170.380859	3.894705
3169.758789	3.893498
3169.137695	7.784586
3168.515625	7.782179
3167.893555	15.559546
3167.270508	0.000000
3166.648438	0.000000
3166.025391	11.658856
3165.402344	0.000000
3164.779297	11.651672
3164.156250	11.648086
3163.533203	-3.881501
3162.909180	11.640923
3162.285156	7.758231
3161.661133	11.633774
3161.037109	7.753470
3160.413086	15.502186
3159.788086	11.623077
3159.163086	-7.746346
3158.538086	-7.743976
3157.913086	15.483216
3157.288086	-7.739243
3156.662109	7.736879
3156.036133	7.734519
3155.410156	11.598241
3154.784180	3.864902
3154.158203	11.591175
3153.531250	0.000000
3152.904297	3.861375
3152.277344	0.000000
3151.650391	15.436115
3151.023438	-3.857858
3150.395508	3.856688
3149.768555	7.711038
3149.140625	3.854351
3148.512695	3.853184
3147.883789	15.408075
3147.255859	19.254272
3146.626953	15.398765
3145.998047	11.545587
3145.369141	0.000000
3144.740234	7.692416
3144.110352	15.380197
3143.481445	11.531674
3142.851562	7.685470
3142.221680	7.683159
3141.590820	0.000000
3140.960938	-3.839272
3140.330078	19.190599
3139.699219	3.836969
3139.068359	11.507458
3138.437500	7.669341
3137.806641	3.833523
3137.174805	0.000000
3136.542969	11.493692
3135.911133	15.320345
3135.279297	0.000000
3134.647461	3.827801
3134.014648	0.000000
3133.381836	-3.825520
3132.749023	7.648762
3132.116211	3.823243
3131.483398	22.932638
3130.849609	11.462912
3130.216797	3.819836
3129.583008	3.818702
3128.949219	-3.817570
3128.314453	3.816439
3127.680664	11.445925
3127.045898	22.885075
3126.411133	7.626102
3125.776367	11.435772
3125.141602	-3.810798
3124.505859	-7.619346
3123.871094	11.425648
3123.235352	3.807426
3122.599609	11.418914
3121.963867	15.220736
3121.327148	7.608129
3120.690430	15.211782
3120.054688	11.405484
3119.417969	7.601423
3118.780273	0.000000
3118.143555	11.395445
3117.506836	7.594737
3116.869141	15.185024
3116.231445	11.385434
3115.593750	3.794035
3114.955078	7.585851
3114.317383	11.375452
3113.678711	7.581420
3113.040039	7.579208
3112.401367	3.788499
3111.762695	7.574790
3111.123047	7.572584
3110.484375	3.785190
3109.844727	11.352268
3109.205078	15.131957
3108.564453	0.000000
3107.924805	7.561585
3107.284180	0.000000
3106.643555	15.114400
3106.002930	15.110021
3105.362305	11.329234
3104.721680	15.101274
3104.080078	7.548454
3103.439453	15.092545
3102.797852	7.544093
3102.155273	0.000000
3101.513672	15.079480
3100.872070	11.306350
3100.229492	7.535395
3099.586914	3.766613
3098.944336	-3.765529
3098.301758	3.764446
3097.658203	7.526729
3097.014648	0.000000
3096.372070	11.283612
3095.728516	7.520251
3095.083984	-3.759048
3094.440430	0.000000
3093.795898	7.513791
3093.151367	-7.511641
3092.506836	18.773733
3091.862305	11.261022
3091.217773	18.763010
3090.572266	-11.254594
3089.927734	15.001845
3089.282227	7.498785
3088.636719	3.748324
3087.990234	7.494515
3087.344727	11.238575
3086.698242	14.980506
3086.051758	-3.744062
3085.405273	3.742999
3084.758789	11.225812
3084.112305	18.704382
3083.464844	7.479632
3082.817383	11.216270
3082.169922	22.426191
3081.522461	7.473283
3080.875000	-3.735585
3080.226562	14.938119
3079.578125	18.667376
3078.929688	3.732422
3078.281250	3.731369
3077.632812	18.651588
3076.983398	11.187801
3076.334961	0.000000
3075.685547	3.727169
3075.036133	7.452242
3074.386719	14.900297
3073.736328	3.724028
3073.085938	7.445967
3072.436523	11.165818
3071.786133	18.604483
3071.135742	11.159563
3070.484375	22.312880
3069.833984	7.435546
3069.182617	11.150201
3068.531250	0.000000
3067.879883	11.143973
3067.228516	-3.713621
3066.576172	7.425171
3065.923828	11.134653
3065.272461	14.842070
3064.619141	0.000000
3063.966797	3.708453
3063.314453	18.537109
3062.661133	18.531960
3062.007812	18.526814
3061.355469	7.408669
3060.701172	3.703307
3060.047852	14.809123
3059.393555	0.000000
3058.740234	3.700231
3058.085938	14.796829
3057.431641	11.094554
3056.777344	11.091489
3056.122070	11.088426
3055.466797	0.000000
3054.812500	7.388206
3054.157227	7.386169
3053.500977	18.460337
3052.845703	14.764205
3052.190430	11.070107
3051.534180	7.378042
3050.877930	14.752030
3050.221680	11.060985
3049.564453	11.057949
3048.908203	3.684972
3048.250977	22.103771
3047.593750	3.682953
3046.936523	3.681944
3046.279297	3.680937
3045.622070	18.399652
3044.963867	11.036775
3044.305664	11.033760
3043.647461	7.353833
3042.989258	14.703653
3042.331055	3.674911
3041.671875	11.021730
3041.013672	7.345819
3040.354492	-3.671910
3039.695312	7.341824
3039.036133	11.009743
3038.375977	7.337835
3037.716797	14.671686
3037.056641	14.667706
3036.396484	7.331864
3035.736328	7.329878
3035.075195	18.319733
3034.415039	3.662955
3033.753906	0.000000
3033.092773	3.660975
3032.431641	3.659986
3031.770508	7.317995
3031.108398	10.974030
3030.447266	7.314048
3029.785156	10.968115
3029.123047	7.310108
3028.460938	18.270350
3027.797852	18.265436
3027.135742	14.608420
3026.472656	10.953371
3025.809570	3.650143
3025.146484	14.596656
3024.483398	0.000000
3023.820312	0.000000
3023.156250	3.646231
3022.492188	18.226273
3021.828125	10.932838
3021.164062	14.573220
3020.500000	21.853989
3019.834961	10.924076
3019.169922	10.921161
3018.504883	7.278832
3017.839844	18.192228
3017.174805	14.549906
3016.509766	14.546032
3015.843750	18.177702
3015.177734	3.634574
3014.511719	-3.633608
3013.845703	14.530570
3013.179688	7.263357
3012.512695	0.000000
3011.845703	3.629752
3011.179688	10.886372
3010.511719	18.139149
3009.844727	10.880609
3009.177734	14.503641
3008.509766	7.249904
3007.841797	10.871983
3007.173828	7.246075
3006.505859	-3.622082
3005.837891	18.105633
3005.168945	7.240344
3004.500977	14.476874
3003.832031	10.854798
3003.163086	14.469256
3002.493164	0.000000
3001.824219	3.615413
3001.154297	3.614464
3000.485352	14.454061
2999.815430	10.837702
2999.145508	14.446482
2998.474609	14.442698
2997.804688	7.219458
2997.133789	3.608785
2996.462891	14.431364
2995.791992	14.427592
2995.121094	3.605956
2994.450195	14.420060
2993.778320	3.604074
2993.106445	14.412539
2992.434570	10.806588
2991.762695	21.607550
2991.090820	10.800963
2990.417969	7.198769
2989.746094	21.590694
2989.073242	7.195029
2988.400391	14.386322
2987.727539	17.978237
2987.053711	-3.594715
2986.380859	17.968916
2985.707031	3.592853
2985.033203	0.000000
2984.359375	3.590993
2983.685547	3.590065
2983.010742	0.000000
2982.336914	14.352843
2981.662109	10.761855
2980.987305	10.759079
2980.312500	14.341742
2979.637695	7.169024
2978.961914	10.750767
2978.286133	17.913336
2977.610352	14.326983
2976.934570	10.742476
2976.258789	10.739717
2975.583008	7.157974
2974.906250	10.734206
2974.229492	3.577152
2973.553711	7.152470
2972.875977	14.301277
2972.199219	7.148809
2971.522461	3.573490
2970.844727	7.145154
2970.166992	10.714993
2969.489258	24.995268
2968.811523	7.139683
2968.133789	3.568931
2967.455078	10.704066
2966.777344	14.268454
2966.098633	14.264822
2965.419922	14.261193
2964.740234	3.564392
2964.061523	10.690459
2963.381836	14.250326
2962.703125	7.123355
2962.023438	10.682323
2961.343750	14.239488
2960.663086	17.794851
2959.983398	10.674208
2959.302734	14.228677
2958.622070	24.893888
2957.941406	3.555371
2957.260742	14.217893
2956.580078	7.107152
2955.898438	17.763399
2955.217773	7.103569
2954.536133	7.101779
2953.854492	10.649986
2953.171875	17.745512
2952.490234	17.741049
2951.807617	7.094636
2951.125977	14.185708
2950.443359	10.636610
2949.760742	24.812532
2949.077148	14.175035
2948.394531	7.085742
2947.710938	14.167934
2947.027344	0.000000
2946.344727	14.160846
2945.660156	7.078653
2944.976562	21.230656
2944.292969	7.075118
2943.608398	14.146706
2942.923828	0.000000
2942.239258	0.000000
2941.554688	17.670166
2940.869141	17.665768
2940.184570	3.532275
2939.499023	3.531397
2938.813477	3.530519
2938.127930	17.648212
2937.442383	17.643833
2936.755859	17.639458
2936.070312	14.108069
2935.383789	7.052288
2934.697266	0.000000
2934.010742	14.097595
2933.324219	10.570582
2932.636719	14.090627
2931.950195	14.087148
2931.262695	10.562753
2930.575195	0.000000
2929.887695	17.595909
2929.199219	10.554944
2928.511719	21.104692
2927.823242	10.549749
2927.134766	24.610029
2926.446289	21.089128
2925.757812	10.541974
2925.069336	10.539387
2924.379883	-3.512267
2923.690430	3.511406
2923.000977	14.042184
2922.311523	3.509686
2921.622070	31.579449
2920.932617	14.031878
2920.242188	10.521338
2919.551758	7.012512
2918.861328	21.032400
2918.170898	7.009090
2917.480469	3.503690
2916.790039	10.508511
2916.098633	0.000000
2915.407227	7.002264
2914.715820	17.501402
2914.024414	17.497149
2913.333008	17.492899
2912.640625	17.488653
2911.949219	10.490646
2911.256836	6.992069
2910.564453	13.980749
2909.872070	17.471704
2909.178711	20.960972
2908.486328	13.970602
2907.792969	13.967226
2907.099609	3.490963
2906.406250	13.960482
2905.712891	13.957113
2905.019531	10.465311
2904.325195	10.462790
2903.630859	10.460271
2902.937500	10.457753
2902.242188	0.000000
2901.547852	13.936968
2900.853516	17.417025
2900.158203	17.412844
2899.463867	17.408667
2898.768555	10.442697
2898.073242	10.440194
2897.376953	6.958463
2896.681641	13.913595
2895.985352	17.387835
2895.290039	10.430208
2894.593750	10.427716
2893.896484	13.900304
2893.200195	10.422741
2892.503906	6.946837
2891.806641	10.417773
2891.109375	10.415293
2890.412109	6.941876
2889.714844	0.000000
2889.017578	10.407865
2888.320312	17.342321
2887.622070	13.870564
2886.923828	3.466819
2886.225586	6.931993
2885.527344	13.860703
2884.829102	17.321777
2884.129883	20.781214
2883.431641	13.850867
2882.732422	17.309492
2882.033203	13.844324
2881.333984	17.301321
2880.633789	20.756689
2879.934570	10.375898
2879.234375	17.289091
2878.534180	10.371013
2877.833984	13.824764
2877.133789	6.910757
2876.433594	17.272833
2875.732422	17.268778
2875.032227	20.717670
2874.331055	10.356406
2873.629883	3.451326
2872.928711	6.901036
2872.226562	13.798842
2871.525391	24.142326
2870.823242	20.688585
2870.121094	17.236462
2869.418945	13.785950
2868.716797	17.228416
2868.014648	27.559040
2867.311523	24.108541
2866.609375	13.773102
2865.906250	10.327423
2865.203125	13.766695
2864.499023	24.086119
2863.795898	13.760300
2863.092773	10.317830
2862.388672	30.946310
2861.684570	30.939137
2860.980469	24.058199
2860.276367	20.616541
2859.571289	13.741180
2858.867188	17.172504
2858.162109	24.035954
2857.457031	13.731659
2856.751953	10.296369
2856.046875	20.587988
2855.341797	10.291622
2854.635742	27.438007
2853.930664	10.286884
2853.224609	10.284519
2852.518555	13.709540
2851.812500	17.132990
2851.105469	23.980680
2850.399414	17.125130
2849.692383	13.696963
2848.985352	17.117283
2848.278320	17.113363
2847.571289	20.531340
2846.864258	20.526646
2846.156250	20.521957
2845.448242	10.258636
2844.740234	30.768887
2844.032227	20.507914
2843.324219	27.337656
2842.616211	13.665715
2841.907227	13.662606
2841.199219	3.414875
2840.490234	3.414099
2839.781250	17.066618
2839.072266	3.412549
2838.362305	17.058876
2837.653320	10.233006
2836.943359	6.820459
2836.233398	13.637831
2835.523438	34.086868
2834.813477	10.223749
2834.103516	13.628587
2833.393555	20.438265
2832.682617	10.216828
2831.971680	20.429050
2831.260742	10.212224
2830.549805	20.419851
2829.838867	13.610172
2829.126953	13.607113
2828.416016	20.406084
2827.704102	13.601003
2826.992188	27.195904
2826.280273	13.594904
2825.567383	16.989822
2824.855469	20.383224
2824.142578	23.775108
2823.430664	16.978424
2822.717773	20.369556
2822.004883	16.970842
2821.291016	20.360466
2820.578125	16.963274
2819.864258	23.743292
2819.150391	10.173431
2818.437500	20.342337
2817.723633	27.117085
2817.008789	3.388883
2816.294922	27.105042
2815.580078	10.162136
2814.866211	16.933138
2814.151367	20.315266
2813.436523	16.925640
2812.720703	13.537517
2812.005859	27.069048
2811.291016	13.531534
2810.575195	16.910683
2809.859375	23.669735
2809.143555	27.045162
2808.427734	20.279404
2807.710938	10.137469
2806.995117	13.513653
2806.278320	20.266024
2805.561523	20.261572
2804.844727	20.257124
2804.127930	23.628128
2803.411133	16.873535
2802.694336	20.243807
2801.976562	13.492918
2801.258789	6.744983
2800.541016	23.602282
2799.823242	26.968145
2799.105469	20.221695
2798.386719	16.847738
2797.668945	10.106440
2796.950195	10.104239
2796.231445	20.204081
2795.512695	20.199686
2794.793945	6.731766
2794.074219	16.825760
2793.355469	0.000000
2792.635742	6.727385
2791.916016	23.540747
2791.196289	20.173414
2790.476562	10.084525
2789.756836	20.164690
2789.036133	20.160334
2788.315430	16.796652
2787.595703	16.793028
2786.875000	20.147291
2786.153320	20.142950
2785.432617	13.425744
2784.711914	16.778570
2783.990234	20.129957
2783.268555	13.417090
2782.546875	20.121317
2781.825195	20.117002
2781.103516	16.760576
2780.381836	13.405591
2779.659180	20.104084
2778.936523	20.099787
2778.213867	10.047747
2777.491211	10.045602
2776.768555	26.782557
2776.045898	20.082636
2775.322266	23.424753
2774.599609	10.037044
2773.875977	23.414787
2773.152344	23.409813
2772.428711	20.061293
2771.704102	20.057037
2770.980469	23.394917
2770.255859	16.707115
2769.531250	23.385010
2768.806641	13.360036
2768.082031	23.375122
2767.357422	13.354392
2766.632812	16.689468
2765.907227	20.023138
2765.181641	20.018919
2764.457031	6.671568
2763.730469	16.675413
2763.004883	16.671907
2762.279297	13.334724
2761.552734	26.663853
2760.827148	16.661413
2760.100586	19.989506
2759.374023	16.654434
2758.647461	19.981140
2757.920898	13.317975
2757.193359	16.643991
2756.466797	16.640518
2755.739258	29.946686
2755.011719	16.633581
2754.284180	23.282166
2753.556641	23.277321
2752.828125	9.973921
2752.100586	26.591599
2751.372070	23.262819
2750.643555	19.935425
2749.915039	23.253176
2749.186523	13.284778
2748.458008	16.602537
2747.728516	23.238747
2747.000000	33.191353
2746.270508	26.547604
2745.541016	36.495426
2744.811523	16.585413
2744.082031	9.949199
2743.351562	26.525740
2742.622070	13.260143
2741.891602	13.257421
2741.161133	29.823076
2740.430664	16.564978
2739.700195	19.873901
2738.969727	13.246556
2738.239258	29.798656
2737.507812	19.861712
2736.776367	16.548046
2736.044922	13.235737
2735.313477	16.541298
2734.582031	13.230344
2733.850586	13.227652
2733.118164	13.224962
2732.385742	19.833412
2731.654297	13.219591
2730.921875	13.216910
2730.189453	39.642696
2729.456055	19.817335
2728.723633	9.906663
2727.990234	29.713984
2727.257812	29.707981
2726.524414	13.200884
2725.791016	23.096889
2725.056641	16.494455
2724.323242	23.087589
2723.589844	23.082947
2722.855469	26.375210
2722.121094	32.962395
2721.386719	19.773470
2720.652344	26.359344
2719.917969	6.588517
2719.183594	9.880798
2718.448242	26.343529
2717.712891	19.753702
2716.977539	26.333015
2716.242188	19.745825
2715.506836	23.032207
2714.771484	32.896606
2714.036133	19.734039
2713.299805	6.576706
2712.563477	23.013905
2711.827148	42.731636
2711.090820	19.718386
2710.354492	19.714483
2709.618164	32.850975
2708.880859	16.422243
2708.144531	16.419001
2707.407227	26.265221
2706.669922	22.977541
2705.932617	13.127439
2705.195312	29.530928
2704.457031	22.963985
2703.719727	16.399628
2702.981445	19.675692
2702.243164	29.507755
2701.504883	36.057972
2700.766602	19.664139
2700.028320	26.213728
2699.289062	22.932533
2698.550781	13.101748
2697.811523	29.473190
2697.072266	26.193291
2696.333008	36.008770
2695.593750	16.364441
2694.854492	22.905771
2694.114258	22.901327
2693.375000	9.812953
2692.634766	9.811053
2691.894531	22.888029
2691.154297	29.421780
2690.414062	13.073822
2689.673828	6.535650
2688.932617	13.068782
2688.191406	39.198799
2687.451172	9.797815
2686.709961	19.591866
2685.968750	22.852789
2685.227539	19.584349
2684.485352	13.053731
2683.744141	22.839657
2683.001953	26.097473
2682.259766	19.569366
2681.517578	22.826571
2680.775391	22.822218
2680.033203	29.337263
2679.291016	16.295378
2678.547852	13.033825
2677.805664	26.062700
2677.062500	22.800535
2676.319336	19.539612
2675.576172	9.767957
2674.832031	26.042957
2674.088867	29.292789
2673.345703	32.541401
2672.601562	29.281736
2671.857422	29.276220
2671.113281	26.018410
2670.369141	29.265207
2669.625000	13.004315
2668.879883	16.252344
2668.135742	16.249298
2667.390625	22.744759
2666.646484	32.486431
2665.901367	19.488216
2665.155273	19.484579
2664.410156	12.987297
2663.665039	12.984878
2662.918945	25.964922
2662.173828	25.960094
2661.427734	19.466455
2660.681641	32.438095
2659.935547	16.216284
2659.189453	19.454708
2658.442383	19.455524
2657.696289	32.413292
2656.949219	32.399033
2656.202148	22.692085
2655.455078	22.694880
2654.708008	42.088650
2653.960938	35.572704
2653.213867	9.745075
2652.465820	32.367458
2651.718750	35.585751
2650.970703	22.592983
2650.222656	25.866571
2649.474609	16.331833
2648.726562	41.956417
2647.977539	19.462601
2647.229492	35.547157
2646.480469	32.260197
2645.732422	22.675646
2644.983398	19.450676
2644.234375	29.163372
2643.484375	29.054935
2642.735352	25.947165
2641.986328	25.774832
2641.236328	29.034042
2640.486328	16.254084
2639.737305	19.535286
2638.987305	29.256861
2638.236328	28.873247
2637.486328	25.995428
2636.736328	35.263367
2635.985352	28.900808
2635.234375	22.207891
2634.484375	32.266781
2633.733398	32.460060
2632.982422	28.531050
2632.230469	26.405115
2631.479492	23.001160
2630.727539	34.949966
2629.976562	35.180168
2629.224609	25.013285
2628.472656	37.745823
2627.720703	29.043983
2626.968750	29.532923
2626.216797	19.647699
2625.463867	23.390072
2624.711914	27.902937
2623.958984	26.254526
2623.206055	44.315125
2622.453125	42.187069
2621.700195	28.810087
2620.947266	37.126358
2620.193359	29.287746
2619.440430	21.920105
2618.686523	22.706463
2617.932617	20.964306
2617.178711	37.637760
2616.424805	28.425964
2615.670898	24.926414
2614.916016	25.556622
2614.162109	16.442120
2613.407227	23.467037
2612.653320	40.133621
2611.898438	31.029133
2611.143555	38.797802
2610.388672	20.473906
2609.632812	30.893728
2608.877930	25.478985
2608.122070	16.090694
2607.367188	31.227180
2606.611328	28.567039
2605.855469	29.570765
2605.099609	27.487494
2604.343750	20.281981
2603.586914	20.872183
2602.831055	28.494583
2602.074219	36.706833
2601.318359	32.813759
2600.561523	38.285686
2599.804688	24.860081
2599.047852	20.768829
2598.290039	22.931190
2597.533203	26.725384
2596.775391	33.056225
2596.018555	32.244202
2595.260742	30.623398
2594.502930	18.537315
2593.745117	27.040749
2592.987305	26.889996
2592.229492	28.264000
2591.470703	17.823380
2590.712891	23.047253
2589.954102	20.602705
2589.195312	15.141889
2588.436523	28.173948
2587.677734	25.136106
2586.918945	30.135838
2586.160156	33.248703
2585.400391	27.050385
2584.641602	24.865284
2583.881836	25.064739
2583.122070	25.411444
2582.362305	20.202583
2581.602539	30.984934
2580.842773	33.353230
2580.082031	36.221531
2579.322266	30.911461
2578.561523	43.548435
2577.801758	27.018427
2577.041016	38.735825
2576.280273	35.380581
2575.519531	36.761089
2574.757812	32.513058
2573.997070	35.205475
2573.236328	29.205198
2572.474609	36.566761
2571.712891	23.392420
2570.951172	33.692268
2570.189453	30.855436
2569.427734	34.184372
2568.666016	27.211159
2567.904297	26.330090
2567.141602	32.769382
2566.379883	27.222996
2565.617188	29.607250
2564.854492	29.709785
2564.091797	17.874857
2563.329102	22.931274
2562.566406	26.875214
2561.803711	22.856579
2561.040039	33.162251
2560.276367	33.898560
2559.513672	26.198797
2558.750000	33.671062
2557.986328	24.483177
2557.222656	25.478148
2556.458984	34.063351
2555.694336	27.170877
2554.930664	26.648458
2554.166016	32.904953
2553.402344	32.755127
2552.637695	16.819710
2551.873047	22.392866
2551.108398	35.583321
2550.343750	38.946407
2549.578125	28.533064
2548.813477	32.747295
2548.047852	20.782253
2547.283203	35.629868
2546.517578	41.844246
2545.751953	37.638077
2544.986328	29.232391
2544.220703	17.124571
2543.455078	35.314713
2542.688477	30.397732
2541.922852	23.011703
2541.156250	16.674932
2540.390625	19.669971
2539.624023	11.868727
2538.857422	18.172586
2538.090820	30.672693
2537.324219	33.036312
2536.556641	38.541389
2535.790039	36.616287
2535.022461	34.274830
2534.255859	27.862938
2533.488281	29.853952
2532.720703	36.361691
2531.953125	24.374571
2531.185547	29.760612
2530.417969	31.036448
2529.649414	33.232693
2528.881836	26.720087
2528.113281	32.096016
2527.344727	34.074348
2526.577148	38.804344
2525.808594	37.205551
2525.040039	24.765255
2524.270508	21.652338
2523.501953	28.587753
2522.733398	28.951149
2521.963867	34.145863
2521.195312	28.653013
2520.425781	18.703983
2519.656250	33.895760
2518.886719	29.220072
2518.117188	26.420223
2517.347656	28.629110
2516.578125	24.171963
2515.807617	21.382723
2515.038086	21.177298
2514.267578	31.539249
2513.497070	34.278404
2512.726562	16.219625
2511.956055	28.896677
2511.185547	31.678278
2510.415039	34.083832
2509.644531	39.441818
2508.873047	34.299046
2508.102539	26.445866
2507.331055	23.706484
2506.559570	21.097509
2505.789062	41.877659
2505.017578	26.301662
2504.246094	29.045328
2503.473633	21.190971
2502.702148	21.042297
2501.930664	15.806822
2501.158203	21.066795
2500.386719	31.558920
2499.614258	10.572954
2498.841797	21.020969
2498.069336	26.266174
2497.296875	18.390326
2496.524414	28.882814
2495.751953	31.493847
2494.978516	23.625336
2494.206055	15.747184
2493.432617	18.369081
2492.659180	18.361036
2491.886719	26.222282
2491.113281	18.349682
2490.339844	20.963928
2489.565430	26.197794
2488.938477	26.190548
2488.166016	36.656631
2487.394531	36.646503
2486.622070	31.402617
2485.848633	28.777788
2485.076172	23.538969
2484.302734	20.917763
2483.530273	26.139999
2482.756836	41.812485
2481.982422	31.350737
2481.208984	36.565804
2480.434570	26.111254
2479.660156	33.935307
2478.885742	20.877533
2478.111328	41.743614
2477.335938	28.690866
2476.560547	39.113190
2475.785156	44.316143
2475.009766	31.273422
2474.234375	28.659462
2473.458008	15.628161
2472.681641	18.227873
2471.905273	15.619626
2471.128906	15.615364
2470.351562	20.814808
2469.575195	15.606852
2468.797852	23.403900
2468.020508	23.397530
2467.242188	31.188219
2466.464844	36.376362
2465.686523	36.366478
2464.908203	36.356602
2464.128906	33.750538
2463.350586	31.145891
2462.571289	33.732235
2461.791992	20.752674
2461.012695	44.087490
2460.233398	33.704842
2459.453125	38.879681
2458.673828	25.912783
2457.893555	20.724625
2457.112305	38.848183
2456.332031	33.659340
2455.550781	25.884817
2454.770508	43.992329
2453.989258	33.632130
2453.207031	28.450296
2452.425781	38.785419
2451.643555	41.359993
2450.861328	41.348877
2450.079102	23.252497
2449.296875	28.412090
2448.513672	38.733368
2447.730469	20.652256
2446.947266	30.970085
2446.164062	41.282391
2445.380859	33.532963
2444.596680	33.523994
2443.812500	36.093113
2443.028320	28.351297
2442.244141	12.883512
2441.458984	43.792255
2440.674805	41.205246
2439.889648	43.768906
2439.104492	36.035381
2438.318359	41.172329
2437.533203	28.298443
2436.747070	25.719017
2435.960938	23.140965
2435.174805	25.705353
2434.387695	28.268381
2433.601562	38.537567
2432.814453	30.821878
2432.027344	38.517139
2431.239258	38.506939
2430.452148	48.762547
2429.664062	41.052334
2428.875977	35.911297
2428.087891	23.079733
2427.299805	35.892326
2426.510742	43.572037
2425.722656	33.311005
2424.933594	25.617096
2424.143555	28.171381
2423.354492	23.043243
2422.564453	43.514671
2421.774414	43.503227
2420.984375	33.258430
2420.194336	33.249695
2419.404297	43.468956
2418.613281	23.006937
2417.822266	30.667873
2417.031250	40.879780
2416.240234	45.977707
2415.448242	30.643782
2414.656250	33.188744
2413.864258	33.180065
2413.072266	15.309875
2412.280273	25.509794
2411.487305	25.503136
2410.694336	28.046131
2409.901367	25.489836
2409.108398	40.773113
2408.315430	53.500774
2407.521484	40.751884
2406.727539	40.741287
2405.933594	30.548021
2405.139648	35.630100
2404.344727	40.709541
2403.550781	40.698975
2402.755859	33.059341
2401.960938	20.338938
2401.165039	17.791960
2400.370117	27.951555
2399.574219	38.105896
2398.778320	40.635777
2397.982422	35.547115
2397.185547	35.537933
2396.389648	32.990990
2395.592773	17.759796
2394.795898	30.437515
2393.999023	22.822254
2393.201172	40.562447
2392.404297	17.741503
2391.606445	12.669241
2390.808594	25.331968
2390.009766	22.792913
2389.211914	27.850851
2388.413086	35.437439
2387.614258	30.367157
2386.815430	40.479164
2386.016602	17.705097
2385.216797	17.700563
2384.417969	32.864063
2383.618164	30.328299
2382.817383	32.847260
2382.017578	30.312801
2381.216797	22.728796
2380.416992	32.822105
2379.616211	27.765469
2378.814453	30.281883
2378.013672	22.705627
2377.211914	37.833076
2376.410156	27.737198
2375.608398	17.646456
2374.806641	22.682535
2374.004883	15.117849
2373.202148	37.785030
2372.399414	25.183630
2371.596680	32.730419
2370.793945	32.722126
2369.990234	20.131594
2369.186523	25.158123
2368.383789	22.636583
2367.579102	25.145401
2366.775391	17.597334
2365.970703	5.026540
2365.166992	15.075814
2364.362305	15.072012
2363.557617	30.136427
2362.751953	25.107363
2361.947266	35.141457
2361.141602	37.642090
2360.335938	42.650307
2359.530273	50.164219
2358.723633	40.121296
2357.916992	42.618176
2357.111328	27.569548
2356.304688	17.539858
2355.497070	30.060795
2354.690430	30.053267
2353.882812	27.541931
2353.075195	12.515928
2352.267578	32.533279
2351.459961	32.525150
2350.651367	20.010479
2349.843750	17.504799
2349.035156	15.000372
2348.226562	19.995510
2347.416992	22.489346
2346.608398	34.974716
2345.798828	19.980579
2344.989258	32.460365
2344.179688	37.444958
2343.370117	39.931370
2342.559570	37.426365
2341.749023	27.439192
2340.938477	32.420097
2340.127930	29.918827
2339.317383	44.867126
2338.505859	39.872017
2337.695312	37.370770
2336.883789	24.907688
2336.071289	17.431074
2335.259766	17.426769
2334.447266	27.378164
2333.634766	24.883102
2332.822266	19.901575
2332.009766	19.896673
2331.197266	14.918831
2330.383789	19.886879
2329.570312	22.367239
2328.756836	44.723484
2327.943359	32.292358
2327.129883	32.284431
2326.315430	19.862469
2325.500977	22.339800
2324.686523	17.371141
2323.872070	34.733776
2323.056641	17.362638
2322.242188	24.797701
2321.426758	42.145786
2320.611328	27.264141
2319.794922	29.735437
2318.979492	7.432045
2318.163086	22.290699
2317.346680	17.332985
2316.530273	24.755377
2315.713867	12.374676
2314.896484	12.371665
2314.080078	19.789850
2313.262695	27.204433
2312.444336	22.252768
2311.626953	22.247366
2310.809570	24.713301
2309.991211	29.648771
2309.172852	41.992252
2308.354492	37.043015
2307.535156	19.751495
2306.716797	27.151737
2305.897461	17.274202
2305.078125	19.737177
2304.258789	19.732414
2303.439453	9.863827
2302.619141	36.980431
2301.798828	49.295361
2300.978516	49.283493
2300.158203	39.417305
2299.337891	29.555868
2298.516602	41.860748
2297.696289	39.388889
2296.875000	39.379433
2296.052734	34.448738
2295.231445	22.140306
2294.409180	29.513334
2293.587891	17.211988
2292.765625	24.582670
2291.942383	24.576790
2291.120117	34.399281
2290.296875	29.478054
2289.474609	12.279590
2288.651367	24.553320
2287.828125	17.183226
2287.003906	19.633291
2286.180664	4.907154
2285.356445	17.170950
2284.532227	4.904819
2283.708008	29.421915
2282.882812	26.963682
2282.058594	29.407942
2281.233398	34.301125
2280.408203	29.393990
2279.583008	14.693512
2278.756836	19.586708
2277.931641	22.029831
2277.105469	19.577440
2276.279297	22.019413
2275.453125	17.122164
2274.625977	9.781783
2273.799805	26.893557
2272.972656	31.775797
2272.145508	39.099457
2271.318359	29.317686
2270.490234	26.868219
2269.663086	17.093935
2268.834961	24.414165
2268.006836	19.526745
2267.178711	26.842968
2266.349609	17.077881
2265.521484	14.634750
2264.692383	14.631321
2263.863281	12.189912
2263.034180	34.123764
2262.204102	29.242098
2261.375000	29.235262
2260.544922	34.099838
2259.714844	34.091873
2258.884766	36.518486
2258.053711	19.471985
2257.223633	17.034016
2256.392578	21.895777
2255.561523	29.187574
2254.730469	26.749052
2253.899414	46.192169
2253.067383	26.736622
2252.235352	41.310642
2251.403320	41.301056
2250.571289	36.433659
2249.739258	29.140175
2248.906250	36.416782
2248.073242	24.272238
2247.240234	9.706650
2246.407227	21.834913
2245.574219	29.106495
2244.740234	21.824831
2243.907227	19.395376
2243.073242	9.695452
2242.239258	14.539827
2241.404297	12.113733
2240.570312	12.110947
2239.735352	24.216324
2238.900391	16.947531
2238.065430	21.784679
2237.230469	16.939751
2236.394531	14.516457
2235.559570	12.094275
2234.723633	12.091504
2233.887695	29.012968
2233.050781	26.589138
2232.214844	33.832985
2231.377930	31.409166
2230.541016	28.986458
2229.704102	38.639793
2228.867188	31.387674
2228.029297	28.966637
2227.192383	19.306694
2226.354492	36.191814
2225.516602	31.359106
2224.678711	36.175362
2223.839844	48.222858
2223.001953	28.927149
2222.163086	19.280394
2221.324219	31.323538
2220.484375	26.498528
2219.645508	16.858883
2218.805664	14.447203
2217.966797	7.221968
2217.126953	12.033895
2216.286133	14.437414
2215.446289	12.028464
2214.605469	16.836054
2213.765625	16.832260
2212.924805	24.040672
2212.083984	24.035263
2211.242188	26.432846
2210.401367	33.634243
2209.559570	16.813347
2208.717773	12.006839
2207.875977	21.607464
2207.034180	38.404659
2206.191406	31.196798
2205.348633	31.189817
2204.505859	50.372284
2203.663086	35.972164
2202.820312	28.771303
2201.977539	28.764883
2201.133789	35.948086
2200.290039	31.148064
2199.446289	33.536598
2198.602539	21.554443
2197.757812	33.521675
2196.914062	19.150986
2196.069336	7.180025
2195.224609	2.392810
2194.379883	9.569118
2193.534180	26.309244
2192.689453	19.129759
2191.843750	38.251049
2190.998047	40.632751
2190.152344	35.844501
2189.305664	11.945528
2188.459961	19.108627
2187.613281	23.880516
2186.766602	16.712677
2185.919922	11.934997
2185.073242	52.502426
2184.225586	35.789234
2183.378906	23.854246
2182.531250	19.079206
2181.683594	16.690641
2180.834961	9.535418
2179.987305	28.599981
2179.138672	26.210909
2178.290039	23.822884
2177.441406	19.054138
2176.592773	28.574963
2175.744141	33.330173
2174.894531	33.322903
2174.044922	35.695320
2173.195312	21.412525
2172.345703	9.514606
2171.496094	4.756268
2170.645508	14.265700
2169.795898	35.656502
2168.945312	28.519007
2168.094727	26.136749
2167.243164	16.628870
2166.392578	14.250230
2165.541016	18.996193
2164.689453	18.992083
2163.837891	21.361473
2162.986328	28.475811
2162.133789	47.449440
2161.282227	28.463522
2160.429688	28.457386
2159.577148	28.451256
2158.724609	35.556416
2157.871094	30.808931
2157.018555	28.432901
2156.165039	30.795694
2155.311523	26.052303
2154.458008	30.782482
2153.604492	21.306383
2152.750000	11.834345
2151.896484	4.732725
2151.041992	-4.731713
2150.187500	16.557457
2149.332031	21.283615
2148.477539	23.643415
2147.622070	14.183025
2146.767578	16.543339
2145.912109	25.991140
2145.055664	25.985613
2144.200195	40.151047
2143.343750	49.587818
2142.488281	30.690706
2141.631836	44.846138
2140.775391	44.836636
2139.917969	25.952557
2139.061523	25.947065
2138.204102	9.433302
2137.346680	14.146964
2136.489258	16.501307
2135.631836	9.427330
2134.774414	2.356336
2133.916016	14.135036
2133.057617	18.842751
2132.199219	23.548485
2131.340820	32.960953
2130.482422	44.723331
2129.623047	25.887022
2128.764648	32.940212
2127.905273	25.876177
2127.045898	28.222649
2126.186523	25.865351
2125.326172	39.965370
2124.466797	21.153721
2123.606445	18.799383
2122.746094	28.193197
2121.885742	23.489437
2121.024414	37.575279
2120.164062	23.479666
2119.302734	23.474787
2118.441406	32.857876
2117.580078	28.158052
2116.718750	14.076107
2115.856445	14.073192
2114.995117	16.415325
2114.132812	21.101055
2113.270508	35.161156
2112.408203	37.497490
2111.544922	49.205303
2110.682617	21.083641
2109.819336	37.474308
2108.956055	23.416622
2108.092773	21.070627
2107.229492	35.110497
2106.365234	30.422850
2105.501953	18.717915
2104.637695	25.731857
2103.773438	32.742931
2102.909180	30.397928
2102.043945	37.405186
2101.179688	46.746933
2100.314453	58.421738
2099.449219	35.045895
2098.583984	39.710587
2097.718750	42.037945
2096.852539	53.704224
2095.987305	42.020851
2095.121094	42.012318
2094.254883	25.668983
2093.388672	34.996063
2092.521484	39.654171
2091.655273	37.314018
2090.788086	44.301437
2089.920898	23.311836
2089.053711	16.314991
2088.186523	27.962914
2087.319336	20.967958
2086.451172	30.280954
2085.583008	30.274862
2084.714844	25.612041
2083.846680	18.623198
2082.978516	16.292028
2082.109375	9.307864
2081.241211	9.306000
2080.372070	11.630172
2079.502930	13.953415
2078.632812	6.975314
2077.763672	23.246405
2076.894531	23.241768
2076.024414	25.560850
2075.154297	30.202265
2074.284180	30.196257
2073.414062	23.223274
2072.542969	16.253063
2071.671875	11.607028
2070.801758	11.604728
2069.930664	13.922915
2069.059570	20.880241
2068.187500	16.236979
2067.316406	11.595551
2066.444336	18.549221
2065.572266	16.227369
2064.700195	11.588695
2063.828125	13.903697
2062.956055	25.485100
2062.083008	20.847349
2061.209961	34.738766
2060.336914	32.416489
2059.463867	18.520081
2058.590820	23.145571
2057.717773	20.826941
2056.843750	6.940958
2055.969727	16.192406
2055.095703	16.189249
2054.221680	9.249198
2053.347656	20.806644
2052.472656	13.868400
2051.598633	4.621902
2050.723633	16.173517
2049.848633	13.860327
2048.973633	39.263321
2048.097656	25.400761
2047.222656	32.321991
2046.346680	34.624016
2045.470703	41.540802
2044.594727	41.532791
2043.718750	23.069330
2042.841797	9.225957
2041.965820	4.612092
2041.088867	9.222411
2040.211914	16.136124
2039.334961	6.914156
2038.458008	11.521387
2037.581055	23.038366
2036.703125	13.820377
2035.825195	20.726608
2034.947266	11.512587
2034.069336	16.114550
2033.191406	18.413122
2032.312500	13.807216
2031.434570	9.203061
2030.555664	6.900986
2029.676758	13.799355
2028.797852	13.796741
2027.918945	16.093151
2027.039062	18.389418
2026.159180	22.981483
2025.280273	39.059437
2024.400391	27.567814
2023.519531	27.560766
2022.639648	27.552469
2021.759766	25.259079
2020.878906	34.430954
2019.998047	16.077637
2019.117188	18.342299
2018.236328	13.756042
2017.355469	11.486254
2016.473633	16.053591
2015.591797	27.466288
2014.710938	34.330238
2013.829102	32.077732
2012.946289	32.044643
2012.064453	34.324406
2011.182617	22.907349
2010.299805	22.884626
2009.416992	15.967600
2008.534180	15.957637
2007.651367	22.839289
2006.768555	16.102797
2005.884766	36.578629
2005.000977	34.447514
2004.117188	48.030514
2003.233398	34.498234
2002.349609	36.494511
2001.465820	20.664900
2000.581055	29.559568
1999.697266	25.241386
1998.812500	36.088383
1997.927734	27.593475
1997.042969	47.820782
1996.157227	47.731045
1995.272461	38.501244
1994.386719	34.392159
1993.500977	38.701790
1992.615234	40.969501
1991.729492	38.867279
1990.843750	36.380634
1989.957031	36.259136
1989.071289	38.632210
1988.184570	25.185749
1987.297852	23.668573
1986.411133	27.599003
1985.523438	36.855793
1984.636719	51.479008
1983.749023	42.473217
1982.861328	29.745018
1981.974609	29.171877
1981.085938	49.505585
1980.198242	37.502399
1979.310547	29.944870
1978.421875	34.704708
1977.533203	41.540527
1976.644531	41.558174
1975.755859	47.927986
1974.867188	39.565445
1973.978516	31.029921
1973.088867	24.443598
1972.199219	30.582094
1971.309570	37.704239
1970.419922	43.381523
1969.530273	46.092224
1968.640625	38.217430
1967.750000	49.525612
1966.859375	39.422188
1965.969727	32.058022
1965.078125	37.400974
1964.187500	32.441280
1963.296875	41.898380
1962.405273	49.769520
1961.514648	58.156876
1960.623047	51.689976
1959.731445	65.105385
1958.839844	46.081730
1957.948242	46.966450
1957.055664	41.619164
1956.163086	60.710163
1955.271484	58.996990
1954.378906	54.677612
1953.486328	55.293854
1952.592773	47.330860
1951.700195	45.767147
1950.806641	43.998104
1949.914062	49.740715
1949.020508	55.667282
1948.126953	58.528126
1947.233398	53.733589
1946.338867	48.810993
1945.445312	51.020626
1944.550781	45.067764
1943.656250	49.430740
1942.761719	42.697170
1941.867188	49.441963
1940.972656	51.723087
1940.078125	42.784916
1939.182617	58.885735
1938.287109	46.243168
1937.391602	52.074734
1936.496094	65.839638
1935.600586	55.983418
1934.705078	48.830559
1933.808594	51.288692
1932.913086	45.279137
1932.016602	48.220005
1931.120117	52.130272
1930.223633	57.642262
1929.326172	62.777203
1928.429688	56.707375
1927.532227	50.463406
1926.635742	42.377411
1925.738281	42.384769
1924.840820	47.863102
1923.943359	44.605804
1923.044922	55.945576
1922.147461	57.482819
1921.249023	58.528587
1920.350586	58.405956
1919.452148	50.139362
1918.553711	43.759308
1917.655273	47.619576
1916.756836	40.522865
1915.857422	48.717010
1914.958008	47.468124
1914.059570	48.297573
1913.160156	47.205997
1912.259766	45.688400
1911.360352	51.517128
1910.460938	57.378174
1909.560547	56.744175
1908.660156	57.437202
1907.759766	47.890892
1906.859375	51.585381
1905.958984	50.791901
1905.058594	46.512188
1904.157227	57.613045
1903.256836	53.451519
1902.355469	48.186268
1901.454102	57.290234
1900.552734	60.661758
1899.651367	56.659195
1898.750000	61.051502
1897.847656	50.598095
1896.945312	53.761219
1896.043945	62.051109
1895.141602	43.356186
1894.239258	53.202900
1893.335938	50.480267
1892.433594	45.614517
1891.530273	52.187725
1890.627930	49.559757
1889.724609	51.343395
1888.821289	49.769547
1887.917969	52.782780
1887.014648	52.825268
1886.110352	61.253124
1885.207031	52.111790
1884.302734	69.245834
1883.398438	54.520752
1882.494141	49.902592
1881.589844	53.354782
1880.685547	61.237324
1879.781250	55.302433
1878.875977	64.317604
1877.970703	60.999775
1877.065430	65.821594
1876.161133	66.302925
1875.254883	61.972954
1874.349609	65.035393
1873.444336	67.192940
1872.538086	51.764164
1871.632812	63.001793
1870.726562	51.757999
1869.820312	52.615425
1868.914062	44.055450
1868.007812	40.900520
1867.100586	47.107433
1866.194336	45.799393
1865.287109	62.564316
1864.379883	54.273159
1863.472656	56.652580
1862.565430	60.255936
1861.658203	68.366615
1860.750977	55.923100
1859.842773	62.117565
1858.935547	73.024475
1858.027344	63.873684
1857.119141	45.669693
1856.210938	53.670010
1855.302734	64.110184
1854.394531	49.093697
1853.485352	44.859867
1852.577148	53.440292
1851.667969	62.443459
1850.758789	66.490555
1849.849609	51.550568
1848.940430	49.599026
1848.031250	53.880127
1847.122070	40.772060
1846.211914	34.603828
1845.302734	42.854710
1844.392578	38.608585
1843.482422	30.176485
1842.572266	36.450733
1841.662109	32.247459
1840.750977	42.897644
1839.840820	36.480618
1838.929688	42.918278
1838.019531	53.660904
1837.108398	53.558273
1836.197266	49.312336
1835.286133	38.596016
1834.375000	36.413605
1833.462891	53.523548
1832.551758	59.896149
1831.639648	47.103031
1830.727539	47.072262
1829.816406	51.333149
1828.904297	55.592918
1827.991211	72.672989
1827.079102	44.877804
1826.166992	40.590282
1825.253906	49.121990
1824.341797	49.122089
1824.300781	42.702862
1823.388672	51.229046
1822.476562	51.214672
1821.564453	42.666927
1820.651367	38.389469
1819.739258	36.246567
1818.826172	42.631081
1817.912109	44.750111
1816.999023	44.737598
1816.084961	31.946497
1815.170898	34.066746
1814.256836	34.057236
1813.341797	57.455551
1812.426758	55.312141
1811.511719	51.043133
1810.596680	44.650303
1809.680664	63.768391
1808.765625	85.000870
1807.848633	61.608494
1806.932617	61.591377
1806.015625	48.834766
1805.099609	48.821213
1804.181641	61.540104
1803.264648	59.401558
1802.346680	50.901512
1801.428711	67.849884
1800.510742	57.232498
1799.592773	57.216663
1798.673828	52.963745
1797.754883	33.887432
1796.835938	25.408556
1795.916016	19.051157
1794.997070	42.324226
1794.076172	40.196930
1793.156250	42.300900
1792.236328	50.747101
1791.315430	40.163731
1790.394531	29.586187
1789.472656	31.690771
1788.551758	31.682064
1787.629883	42.231152
1786.708008	40.108585
1785.786133	46.428780
1784.863281	50.635693
1783.940430	52.731064
1783.017578	54.825287
1782.094727	54.810284
1781.170898	56.902802
1780.247070	63.208054
1779.323242	69.509865
1778.398438	61.067745
1777.474609	58.945869
1776.549805	48.406612
1775.625000	42.081234
1774.699219	33.655815
1773.773438	39.955395
1772.848633	44.149208
1771.921875	46.238972
1770.996094	67.238403
1770.069336	60.918247
1769.142578	60.901707
1768.215820	60.885178
1767.288086	56.670826
1766.361328	60.852165
1765.432617	67.129021
1764.504883	56.624775
1763.577148	46.126221
1762.648438	50.305904
1761.719727	48.196793
1760.790039	37.709038
1759.861328	41.887615
1758.931641	54.439205
1758.001953	60.704277
1757.072266	60.687912
1756.141602	48.118824
1755.210938	56.472103
1754.280273	56.456905
1753.349609	43.899117
1752.417969	41.797443
1751.486328	50.143456
1750.554688	50.129993
1749.623047	50.116539
1748.690430	62.628872
1747.757812	41.741386
1746.825195	47.989735
1745.891602	45.890934
1744.958984	56.305618
1744.025391	45.866379
1743.091797	62.528343
1742.157227	56.260471
1741.222656	54.162285
1740.289062	56.230438
1739.353516	49.969280
1738.418945	43.711464
1737.483398	47.861706
1736.547852	43.688183
1735.612305	64.474915
1734.675781	56.140633
1733.740234	66.519356
1732.803711	49.876263
1731.866211	58.173523
1730.929688	43.618561
1729.992188	31.147852
1729.054688	33.215569
1728.117188	31.131344
1727.178711	56.021580
1726.241211	68.452698
1725.302734	64.287041
1724.363281	76.709404
1723.424805	78.761818
1722.485352	47.659039
1721.545898	45.574875
1720.606445	45.562851
1719.666016	60.044289
1718.725586	43.468891
1717.785156	43.457443
1716.844727	39.308292
1715.903320	47.571205
1714.961914	51.694237
1714.020508	55.815105
1713.079102	57.867130
1712.136719	66.116508
1711.195312	59.902367
1710.252930	53.691490
1709.309570	57.806454
1708.367188	41.279510
1707.423828	53.649315
1706.480469	47.446594
1705.536133	53.621258
1704.592773	57.730885
1703.648438	68.022202
1702.704102	57.700741
1701.758789	78.287720
1700.814453	72.088310
1699.869141	61.773880
1698.923828	76.167946
1697.977539	59.683662
1697.032227	76.128311
1696.085938	53.481659
1695.139648	51.411312
1694.192383	67.845306
1693.246094	76.049232
1692.298828	65.755249
1691.351562	61.629562
1690.403320	88.312813
1689.456055	69.810654
1688.507812	80.056198
1687.559570	77.983292
1686.610352	69.756485
1685.662109	82.045250
1684.712891	59.467442
1683.763672	61.502167
1682.813477	53.288124
1681.864258	65.568474
1680.914062	69.648552
1679.963867	63.486736
1679.012695	63.470394
1678.062500	63.454067
1677.111328	75.716026
1676.160156	67.513161
1675.208008	69.541145
1674.255859	77.702507
1673.304688	69.505463
1672.351562	69.487640
1671.399414	67.426605
1670.446289	49.024971
1669.493164	67.392082
1668.540039	59.208191
1667.586914	63.275333
1666.632812	71.421638
1665.678711	55.082619
1664.724609	71.385170
1663.770508	53.015453
1662.815430	42.809258
1661.860352	55.026447
1660.905273	50.937439
1659.950195	46.850513
1658.994141	48.875057
1658.038086	59.042343
1657.082031	73.275322
1656.125977	67.151985
1655.168945	61.031765
1654.211914	73.219536
1653.254883	50.834007
1652.297852	50.821129
1651.339844	34.549614
1650.381836	48.763580
1649.423828	81.252075
1648.465820	62.954437
1647.506836	64.968803
1646.547852	58.863110
1645.588867	50.731255
1644.629883	48.689716
1643.669922	66.931480
1642.709961	77.053200
1641.750000	60.816151
1640.790039	54.720760
1639.829102	46.602257
1638.868164	60.770267
1637.907227	70.880829
1636.946289	64.789062
1635.984375	58.700348
1635.022461	54.638340
1634.060547	54.624641
1633.098633	52.588329
1632.135742	54.597282
1631.173828	46.497154
1630.210938	60.633293
1629.247070	68.700554
1628.284180	80.803986
1627.320312	72.705429
1626.356445	70.668198
1625.391602	64.594803
1624.427734	74.669128
1623.462891	74.650520
1622.498047	80.683174
1621.533203	48.397858
1620.567383	38.305443
1619.601562	42.327068
1618.635742	48.361778
1617.669922	36.262329
1616.704102	38.267403
1615.737305	38.257912
1614.770508	46.300732
1613.803711	60.377300
1612.835938	60.362350
1611.868164	80.463219
1610.900391	84.465492
1609.932617	76.402267
1608.964844	90.454025
1607.996094	50.239830
1607.027344	54.245632
1606.058594	62.266663
1605.088867	72.291855
1604.120117	86.327339
1603.150391	66.234901
1602.179688	80.264977
1601.209961	60.183933
1600.239258	66.186058
1599.268555	74.190392
1598.297852	72.167526
1597.327148	74.153984
1596.355469	54.099102
1595.383789	60.095383
1594.412109	52.069912
1593.440430	72.079155
1592.467773	70.059822
1591.495117	80.048790
1590.522461	72.026314
1589.549805	64.007759
1588.576172	63.992138
1587.602539	57.978733
1586.628906	63.960938
1585.655273	51.955605
1584.680664	67.925400
1583.706055	63.914234
1582.731445	79.873367
1581.756836	85.843002
1580.782227	79.834564
1579.806641	71.833664
1578.831055	101.739670
1577.854492	67.809998
1576.878906	63.805714
1575.902344	71.764046
1574.925781	73.739639
1573.949219	69.736839
1572.971680	67.727982
1571.995117	87.626801
1571.017578	99.551865
1570.040039	77.631714
1569.061523	61.692379
1568.083008	79.583885
1567.105469	61.662655
1566.125977	63.636448
1565.147461	43.739532
1564.167969	61.618156
1563.188477	71.539375
1562.208984	93.376190
1561.229492	81.436279
1560.249023	79.430969
1559.268555	75.441330
1558.288086	83.362541
1557.307617	77.389542
1556.326172	59.516171
1555.345703	79.335915
1554.363281	67.419403
1553.381836	95.157600
1552.400391	91.170929
1551.417969	83.223160
1550.435547	71.317131
1549.453125	77.241814
1548.469727	75.243324
1547.486328	81.164268
1546.502930	71.249237
1545.519531	77.168320
1544.536133	75.171783
1543.551758	55.376579
1542.567383	63.272503
1541.583008	69.187889
1540.597656	71.147820
1539.613281	73.106827
1538.627930	61.237164
1537.642578	77.022079
1536.656250	80.952782
1535.670898	78.959663
1534.684570	61.179287
1533.698242	78.922386
1532.710938	84.821556
1531.724609	76.913048
1530.737305	63.093273
1529.750000	82.790428
1528.762695	74.888000
1527.774414	80.781212
1526.787109	74.852798
1525.798828	72.865868
1524.809570	78.755424
1523.821289	72.831680
1522.832031	86.590347
1521.842773	66.895050
1520.853516	64.912346
1519.864258	78.663223
1518.874023	70.780342
1517.883789	90.420418
1516.893555	92.364502
1515.903320	74.660255
1514.912109	78.571411
1513.920898	74.625443
1512.929688	80.498169
1511.938477	82.442337
1510.946289	88.310524
1509.954102	98.099991
1508.961914	86.307930
1507.969727	98.054420
1506.977539	84.307228
1505.984375	92.128395
1504.991211	80.348694
1503.998047	88.167160
1503.003906	86.187935
1502.010742	66.584358
1501.016602	84.190163
1500.022461	95.915466
1499.027344	88.065292
1498.033203	86.088417
1497.038086	88.024666
1496.042969	88.004379
1495.046875	84.073708
1494.051758	76.235344
1493.055664	93.806534
1492.059570	82.061852
1491.063477	80.089600
1490.066406	76.165298
1489.070312	76.147827
1488.073242	78.082428
1487.075195	91.725830
1486.078125	78.046661
1485.080078	95.585281
1484.083008	83.861778
1483.083984	83.842613
1482.085938	89.671616
1481.086914	83.804337
1480.088867	75.991241
1479.089844	79.870026
1478.089844	87.642250
1477.090820	81.780815
1476.090820	93.442528
1475.090820	83.689896
1474.090820	71.995880
1473.089844	91.433456
1472.089844	89.467766
1471.088867	79.724922
1470.087891	95.259422
1469.085938	93.294220
1468.084961	87.443535
1467.083008	87.423767
1466.081055	69.923203
1465.078125	89.326141
1464.076172	95.130287
1463.073242	95.108826
1462.070312	81.503479
1461.067383	85.365364
1460.063477	83.406464
1459.060547	73.691460
1458.056641	85.307777
1457.052734	85.288612
1456.047852	83.331528
1455.043945	89.125359
1454.039062	91.042450
1453.034180	94.895332
1452.028320	89.065475
1451.023438	77.430908
1450.017578	85.154961
1449.011719	83.201027
1448.005859	83.182449
1446.999023	102.504333
1445.993164	92.813416
1444.986328	85.060013
1443.978516	92.772079
1442.971680	94.683762
1441.963867	98.526489
1440.957031	88.847290
1439.949219	71.448257
1438.940430	96.530273
1437.932617	84.927803
1436.923828	90.698235
1435.915039	84.890190
1434.906250	82.942513
1433.896484	94.494987
1432.887695	84.833893
1431.877930	92.525635
1430.868164	88.650833
1429.857422	78.997452
1428.847656	88.611755
1427.836914	77.036736
1426.826172	96.274734
1425.815430	100.103714
1424.803711	90.458473
1423.791992	92.362839
1422.780273	88.494972
1421.768555	92.322334
1420.756836	101.916908
1419.744141	99.972061
1418.731445	103.794426
1417.718750	101.850037
1416.706055	107.591621
1415.692383	78.755241
1414.679688	99.862915
1413.666016	107.521233
1412.651367	99.819397
1411.637695	88.282555
1410.623047	80.588280
1409.608398	76.734062
1408.593750	84.389130
1407.579102	93.958412
1406.563477	78.601212
1405.548828	109.251175
1404.533203	86.232246
1403.516602	93.877022
1402.500977	80.448616
1401.484375	86.176323
1400.467773	97.645409
1399.451172	97.624344
1398.434570	99.517090
1397.416992	95.668892
1396.399414	103.300163
1395.381836	93.715164
1394.364258	91.782883
1393.346680	107.057030
1392.328125	82.186859
1391.309570	82.169235
1390.291016	84.062126
1389.271484	87.864311
1388.252930	68.748657
1387.233398	85.917450
1386.213867	80.172485
1385.194336	85.880753
1384.173828	99.218811
1383.153320	99.197662
1382.132812	108.712738
1381.112305	99.155418
1380.091797	102.947189
1379.070312	97.207237
1378.048828	89.564117
1377.027344	91.450333
1376.005859	118.098297
1374.984375	100.933609
1373.961914	72.352173
1372.939453	112.312508
1371.916992	110.385567
1370.893555	72.306305
1369.871094	108.436569
1368.847656	104.609711
1367.824219	91.276512
1366.800781	98.862068
1365.776367	98.841270
1364.751953	115.924042
1363.727539	104.499718
1362.703125	125.373344
1361.678711	94.959892
1360.653320	108.231590
1359.628906	94.920113
1358.603516	106.288284
1357.577148	104.368454
1356.551758	87.271751
1355.525391	104.324883
1354.499023	119.474487
1353.472656	106.177414
1352.446289	111.842201
1351.418945	108.028465
1350.391602	126.954430
1349.364258	96.616882
1348.336914	104.173058
1347.309570	109.832443
1346.281250	100.343338
1345.252930	104.108322
1344.224609	96.516838
1343.196289	102.173180
1342.166992	113.502312
1341.138672	96.457054
1340.109375	113.455498
1339.079102	126.665871
1338.049805	107.738342
1337.019531	86.928848
1335.990234	117.140900
1334.958984	119.005829
1333.928711	103.872665
1332.898438	100.074966
1331.867188	109.493568
1330.835938	107.583733
1329.804688	107.561737
1328.773438	99.993118
1327.741211	120.721764
1326.708984	116.925362
1325.676758	113.130524
1324.644531	116.877739
1323.612305	101.776039
1322.579102	114.945862
1321.545898	109.270599
1320.512695	97.946869
1319.479492	129.941620
1318.445312	111.086998
1317.412109	101.652275
1316.377930	107.277931
1315.343750	112.901329
1314.308594	99.709381
1313.274414	124.141357
1312.239258	103.430290
1311.204102	139.132751
1310.168945	101.508881
1309.132812	114.644402
1308.097656	112.742348
1307.061523	108.962410
1306.025391	105.184006
1304.989258	110.796677
1303.952148	123.917252
1302.915039	101.366585
1301.877930	110.730263
1300.840820	114.460991
1299.803711	112.562141
1298.765625	108.788406
1297.728516	95.639740
1296.690430	110.620056
1295.652344	104.974457
1294.613281	99.331116
1293.575195	116.175629
1292.536133	89.924614
1291.497070	121.748817
1290.458008	101.125175
1289.417969	106.722160
1288.377930	114.188904
1287.338867	102.936913
1286.298828	106.659065
1285.257812	97.283859
1284.217773	101.005684
1283.176758	104.726067
1282.135742	104.705521
1281.094727	112.162491
1280.053711	104.664490
1279.011719	99.038086
1277.970703	125.174614
1276.928711	112.074783
1275.885742	106.450439
1274.843750	125.100746
1273.800781	123.205582
1272.758789	97.060921
1271.715820	110.094620
1270.672852	113.805809
1269.628906	117.506042
1268.585938	110.044197
1267.541992	96.997009
1266.498047	96.979942
1265.453125	115.523811
1264.409180	98.782005
1263.364258	102.466400
1262.320312	109.893379
1261.274414	108.016327
1260.229492	106.207909
1259.184570	95.000450
1258.138672	102.393219
1257.092773	98.642555
1256.046875	106.181641
1255.000977	100.548630
1253.954102	122.705284
1252.908203	100.550163
1251.861328	113.361992
1250.814453	107.692192
1249.766602	89.290520
1248.719727	94.816475
1247.671875	105.676094
1246.624023	105.877228
1245.576172	109.267693
1244.528320	89.361801
1243.479492	89.362083
1242.431641	104.035530
1241.382812	111.031975
1240.333008	100.571045
1239.284180	115.034485
1238.235352	114.359383
1237.185547	119.966408
1236.135742	104.025406
1235.085938	103.661491
1234.035156	98.398849
1232.985352	95.668480
1231.934570	101.647034
1230.883789	107.141655
1229.833008	103.608833
1228.782227	110.749779
1227.730469	102.340179
1226.678711	110.779083
1225.626953	121.200066
1224.575195	107.873955
1223.523438	112.255989
1222.470703	110.117096
1221.418945	89.828896
1220.366211	112.637314
1219.312500	98.447098
1218.259766	112.309570
1217.207031	114.262489
1216.153320	117.148544
1215.099609	104.566032
1214.045898	105.208817
1212.991211	89.057343
1211.937500	109.010300
1210.882812	104.721352
1209.828125	111.011604
1208.773438	110.304153
1207.718750	98.957527
1206.663086	98.014236
1205.607422	106.833443
1204.552734	99.810532
1203.496094	107.250656
1202.440430	102.996262
1201.384766	108.740387
1200.328125	84.076317
1199.271484	94.564964
1198.214844	77.874176
1197.158203	67.911346
1196.100586	82.477676
1195.042969	81.692642
1193.986328	87.818466
1192.928711	95.450348
1191.870117	104.025658
1190.812500	119.851265
1189.753906	107.983139
1188.695312	102.388229
1187.636719	117.255630
1186.578125	113.037666
1185.519531	114.791794
1184.459961	105.663460
1183.400391	110.392372
1182.340820	99.249886
1181.281250	102.334526
1180.221680	108.466446
1179.161133	89.407127
1178.100586	100.524384
1177.040039	119.560318
1175.979492	110.181793
1174.918945	118.342148
1173.857422	108.306564
1172.796875	121.947182
1171.735352	109.294846
1170.673828	119.348892
1169.611328	110.776588
1168.549805	109.468651
1167.487305	111.784378
1166.424805	109.748962
1165.362305	110.200890
1164.299805	114.967201
1163.237305	101.753059
1162.173828	106.768349
1161.110352	101.791321
1160.046875	101.207535
1158.983398	108.568321
1157.919922	106.722084
1156.855469	114.504402
1155.791016	110.353745
1154.726562	120.774597
1153.662109	108.624588
1152.597656	113.847290
1151.532227	102.540268
1150.467773	106.827553
1149.402344	108.615166
1148.336914	111.745285
1147.271484	106.953423
1146.205078	110.631599
1145.139648	116.593376
1144.073242	105.066414
1143.006836	103.247131
1141.940430	123.829315
1140.873047	115.597191
1139.806641	106.587814
1138.739258	119.043098
1137.671875	113.331459
1136.604492	122.735558
1135.537109	104.105537
1134.468750	100.538506
1133.401367	108.894997
1132.333008	106.757362
1131.264648	102.750420
1130.196289	103.706566
1129.126953	113.982277
1128.058594	107.065353
1126.989258	111.170479
1125.919922	117.028603
1124.850586	103.536263
1123.781250	103.854561
1122.710938	104.041115
1121.641602	118.978790
1120.571289	104.332115
1119.500977	108.180305
1118.430664	107.831078
1117.360352	103.068924
1116.289062	114.881508
1115.217773	108.712677
1114.146484	109.031891
1113.075195	113.620895
1112.003906	104.020447
1110.932617	118.236946
1109.860352	109.723068
1108.788086	110.542130
1107.715820	100.999466
1106.643555	106.117409
1105.571289	111.460701
1104.499023	95.644615
1103.425781	103.076057
1102.352539	117.752007
1101.279297	114.124962
1100.206055	123.775406
1099.131836	116.222954
1098.058594	113.650124
1096.984375	109.946350
1095.910156	114.809792
1094.835938	133.361404
1093.761719	111.553596
1092.687500	118.216125
1091.612305	121.749847
1090.537109	123.977165
1089.461914	123.576797
1088.386719	111.866577
1087.311523	114.160339
1086.236328	108.337395
1085.160156	115.344971
1084.083984	111.566879
1083.007812	123.672752
1081.931641	98.263870
1080.855469	123.343468
1079.778320	125.853851
1078.702148	118.867401
1077.625000	110.576317
1076.547852	102.912613
1075.470703	116.378624
1074.392578	115.120445
1073.315430	118.739639
1072.237305	115.999817
1071.159180	137.971832
1070.081055	130.403076
1069.002930	117.777061
1067.924805	123.951248
1066.845703	122.417870
1065.767578	109.967262
1064.688477	128.613953
1063.609375	109.863960
1062.530273	133.276306
1061.450195	113.029694
1060.371094	138.089203
1059.291016	114.386681
1058.210938	114.397263
1057.130859	117.581619
1056.050781	103.333656
1054.970703	109.628113
1053.889648	104.855812
1052.809570	125.350655
1051.728516	123.763794
1050.647461	120.553543
1049.566406	118.891167
1048.485352	112.549370
1047.403320	96.704842
1046.321289	102.991013
1045.240234	106.115929
1044.158203	112.421883
1043.076172	131.368088
1041.993164	101.286346
1040.911133	117.074905
1039.828125	110.717049
1038.745117	102.777321
1037.662109	91.682739
1036.579102	91.682594
1036.095703	77.433678
1035.011719	82.150856
1033.927734	93.182808
1032.843750	101.050598
1031.758789	104.178474
1030.673828	105.726562
1029.587891	115.161545
1028.502930	116.705605
1027.416016	97.752335
1026.330078	115.062500
1025.243164	108.726555
1024.156250	132.324860
1023.069336	125.987617
1021.981445	138.546738
1020.893555	133.785309
1019.805664	132.173599
1018.716797	113.259308
1017.627930	113.226982
1016.539062	130.488327
1015.449219	128.879425
1014.359375	133.556458
1013.269531	124.093597
1012.178711	122.487923
1011.088867	127.162819
1009.997070	125.557198
1008.906250	142.780731
1007.814453	123.917305
1006.722656	120.745872
1005.629883	120.711617
1004.538086	126.946350
1003.445312	141.011520
1002.351562	140.971588
1001.257812	122.140785
1000.164062	117.409836
999.070312	133.026855
997.975586	131.424683
996.880859	123.566864
995.786133	131.350464
994.690430	126.623627
993.594727	115.648224
992.499023	145.300720
991.403320	142.135910
990.306641	153.026352
989.208984	126.445366
988.112305	118.606728
987.014648	113.892853
985.916992	146.615341
984.818359	135.659073
983.720703	146.533035
982.622070	121.557129
981.522461	140.218903
980.422852	143.294708
979.323242	140.140350
978.223633	121.420967
977.123047	122.943245
976.022461	102.683357
974.921875	102.654655
973.820312	132.169830
972.718750	116.587875
971.617188	130.541977
970.514648	132.059219
969.413086	127.362785
968.309570	121.116219
967.207031	136.605881
966.103516	139.671692
965.000000	134.978409
963.895508	124.083572
962.791992	131.802155
961.687500	125.564827
960.582031	133.278732
959.476562	147.185669
958.371094	156.438217
957.265625	139.361755
956.159180	140.871201
955.052734	151.665436
953.946289	153.170654
952.838867	154.675049
951.732422	134.530106
950.624023	165.410858
949.516602	149.910492
948.408203	137.508789
947.299805	142.104706
946.190430	151.330673
945.081055	163.639099
943.971680	155.877335
942.862305	149.662781
941.751953	171.216476
940.641602	141.870132
939.531250	180.372223
938.419922	166.451706
937.308594	140.212479
936.197266	164.819977
935.084961	166.314743
933.972656	143.176224
932.860352	170.840927
931.748047	166.178101
930.634766	161.517838
929.521484	170.700729
928.407227	152.204971
927.292969	170.607437
926.178711	176.707184
925.064453	162.833481
923.949219	164.324799
922.833984	161.209351
921.718750	147.351242
920.602539	173.397446
919.486328	173.350250
918.370117	174.836746
917.252930	162.523300
916.135742	164.011948
915.018555	171.629425
913.900391	173.114807
912.783203	182.257278
911.664062	173.020905
910.545898	182.158463
909.426758	160.684509
908.307617	163.700821
907.188477	180.481033
906.068359	177.374039
904.948242	168.154037
903.828125	168.108597
902.707031	169.591049
901.585938	190.929367
900.464844	169.499527
899.342773	178.613495
898.221680	163.303360
897.098633	157.156219
895.976562	167.791550
894.853516	181.471100
893.730469	172.274963
892.607422	170.704498
891.483398	175.229858
890.359375	190.416092
889.234375	161.429504
888.110352	170.521271
886.985352	152.210327
885.860352	181.081757
884.734375	173.426819
883.608398	188.589203
882.482422	196.141113
881.355469	168.727463
880.229492	196.036270
879.101562	162.560287
877.974609	142.771851
876.846680	171.584198
875.718750	159.394119
874.590820	182.116150
873.461914	182.067642
872.333008	171.401367
871.204102	168.322906
870.074219	187.986389
868.945312	168.233398
867.814453	180.310410
866.684570	168.144043
865.553711	148.412094
864.422852	175.624847
863.291016	164.983032
862.160156	164.939316
861.028320	170.946838
859.895508	160.314774
858.763672	179.928391
857.630859	172.322784
856.497070	170.766037
855.364258	175.253342
854.230469	181.248688
853.096680	184.220871
851.961914	170.585800
850.828125	164.503998
849.692383	191.619293
848.557617	182.518326
847.421875	168.898117
846.286133	183.929916
845.150391	158.258713
844.013672	204.928848
842.876953	206.381454
841.740234	179.218597
840.603516	195.733643
839.465820	180.629837
838.328125	173.058228
837.189453	183.544113
836.050781	177.479797
834.912109	178.937027
833.773438	189.413177
832.633789	180.346344
831.494141	169.781769
830.354492	192.268967
829.213867	196.723907
828.073242	183.160736
826.932617	184.613907
825.791992	213.075974
824.650391	193.518616
823.508789	200.967010
822.366211	191.918549
821.224609	197.864532
820.081055	185.824448
818.938477	172.292419
817.794922	187.225754
816.652344	178.192673
815.507812	179.643494
814.364258	197.556625
813.219727	212.467987
812.075195	179.503922
810.929688	198.898697
809.784180	186.886520
808.638672	198.795853
807.493164	186.789948
806.346680	195.705307
805.200195	179.225769
804.053711	203.070145
802.906250	208.988907
801.759766	188.041550
800.611328	198.437195
799.463867	216.285614
798.315430	190.878876
797.166992	208.720093
796.018555	193.761703
794.869141	213.083130
793.719727	211.538727
792.570312	196.591187
791.419922	214.408112
790.269531	206.910355
789.119141	190.487335
787.967773	184.487366
786.816406	212.701157
785.665039	193.315247
784.513672	181.372543
783.361328	214.024384
782.208984	188.709427
781.056641	197.574402
779.903320	215.345718
778.750000	201.927948
777.596680	191.485809
776.443359	213.697174
775.289062	203.257370
774.134766	166.124344
772.979492	186.842377
771.824219	194.207397
770.668945	203.050812
769.513672	200.035797
768.357422	183.689972
767.201172	207.339325
766.044922	186.558105
764.888672	170.228165
763.731445	198.302612
762.574219	202.690933
761.416016	212.993546
760.258789	209.982224
759.100586	205.494064
757.941406	212.832199
756.783203	226.077164
755.624023	205.338577
754.463867	205.286835
753.304688	202.282104
752.144531	222.897141
750.984375	209.559143
749.823242	216.883438
748.663086	202.078659
747.501953	206.451874
746.339844	213.771484
745.178711	207.822174
744.016602	212.190704
742.854492	218.030243
741.691406	209.138779
740.528320	197.306900
739.365234	222.282745
738.202148	217.812042
737.038086	228.056961
735.874023	219.174179
734.709961	229.413666
733.544922	202.892227
732.379883	235.178696
731.214844	217.486069
730.049805	223.308441
728.883789	230.596695
727.717773	223.197296
726.550781	223.141785
725.384766	215.747971
724.217773	221.563614
723.049805	228.843323
721.882812	228.786545
720.714844	243.391968
719.546875	236.002380
718.377930	241.805878
717.209961	235.885513
716.041016	259.263397
714.871094	254.806061
713.702148	286.951996
712.532227	251.752808
711.361328	239.984116
710.191406	256.017426
709.020508	267.655060
707.849609	288.060394
706.677734	283.603821
705.506836	265.995819
704.334961	283.464233
703.162109	293.620117
701.990234	277.483154
700.817383	256.973877
699.644531	267.128845
698.470703	278.738220
697.296875	335.571045
696.123047	301.939941
694.949219	304.782562
693.774414	301.792114
692.599609	333.784943
691.424805	320.588379
690.250000	327.794342
689.074219	334.996857
687.898438	343.652008
686.721680	320.275421
685.544922	346.395294
684.368164	337.580383
683.191406	356.409698
682.014648	359.231720
680.836914	338.787994
679.658203	356.149719
678.480469	344.436646
677.301758	374.865295
676.123047	370.416504
674.944336	370.326660
673.764648	406.534637
672.584961	436.918884
671.405273	419.398621
670.224609	438.158295
669.044922	422.096771
667.863281	435.046173
666.682617	434.941101
665.500977	472.521912
664.319336	521.677429
663.137695	524.449158
661.956055	492.457886
660.773438	495.235413
659.590820	535.652039
658.407227	494.997131
657.223633	568.675781
656.040039	593.132446
654.856445	607.453186
653.671875	659.362366
652.487305	610.053040
651.302734	657.601013
650.118164	712.350830
648.932617	716.514099
647.747070	707.677246
646.561523	730.610352
645.375000	779.516418
644.188477	790.875916
643.001953	805.115723
641.814453	815.021301
640.626953	784.541443
639.439453	805.981934
638.251953	846.151611
637.063477	828.656616
635.875000	799.643555
634.686523	852.750427
633.498047	852.547852
632.308594	774.597778
631.119141	749.943726
629.928711	751.205017
628.738281	738.078247
627.547852	745.095581
626.357422	737.728882
625.166992	671.418945
623.975586	661.198547
622.784180	663.916443
621.591797	646.519226
620.400391	649.239441
619.208008	627.545898
618.014648	601.555542
616.822266	610.026001
615.628906	569.701965
614.435547	527.962280
613.241211	537.878601
612.046875	520.544189
610.852539	471.677216
609.658203	515.999878
608.463867	518.744934
607.268555	477.076202
606.072266	458.344238
604.876953	469.692902
603.680664	442.381622
602.484375	423.671051
601.288086	435.019989
600.090820	447.794312
598.893555	426.235077
597.696289	426.135712
596.499023	441.762604
595.300781	401.638824
594.102539	395.829407
592.904297	364.306976
591.705078	369.935608
590.505859	381.273621
589.306641	361.197906
588.107422	339.704193
586.907227	376.727386
585.707031	388.053467
584.506836	385.110962
583.305664	385.021881
582.104492	393.486938
580.903320	386.269287
579.702148	403.280334
578.500000	394.639130
577.297852	413.064850
576.095703	418.665771
574.892578	400.061188
573.689453	407.086029
572.486328	402.723236
571.283203	435.353333
570.079102	403.960602
568.875000	413.822388
567.670898	413.727448
566.465820	386.625671
565.260742	412.116760
564.055664	413.443207
562.850586	413.348602
561.644531	457.277740
560.438477	400.381561
559.232422	425.840576
558.025391	408.713684
556.818359	424.227539
555.611328	448.245331
554.404297	450.979614
553.196289	409.759277
551.988281	443.686829
550.780273	436.499939
549.572266	419.398193
548.363281	443.384613
547.154297	423.456665
545.944336	414.865143
544.735352	438.836426
543.525391	442.982941
542.315430	442.882751
541.104492	476.734039
539.893555	480.869354
538.682617	496.314850
537.471680	506.098663
536.260742	497.504425
535.048828	490.327118
533.836914	525.534973
532.624023	539.540894
531.411133	569.073547
530.198242	543.533752
528.985352	611.161804
527.772461	615.258179
526.558594	663.088379
525.344727	658.708313
524.129883	685.354553
522.916016	710.579102
521.701172	737.201965
520.486328	780.724060
519.270508	787.594482
518.054688	794.461914
516.838867	864.700134
515.623047	805.371887
514.406250	853.053711
513.189453	840.197693
511.972656	838.603943
510.755859	821.536804
509.538086	805.883728
508.320312	819.766174
507.102539	774.598755
505.883789	782.860168
504.666016	782.686951
503.446289	682.767944
502.227539	668.571472
501.007812	603.828247
499.789062	612.118652
498.568359	595.140137
497.348633	580.975769
496.127930	552.787537
494.907227	496.557739
493.686523	516.082153
492.464844	465.493561
491.243164	485.016296
490.021484	455.478973
488.799805	465.187286
487.577148	444.072510
486.354492	469.185272
485.131836	445.278473
483.909180	432.581696
482.685547	422.689758
481.461914	421.198212
480.238281	415.510254
479.013672	395.837646
477.789062	384.564148
476.564453	363.508820
475.339844	413.750854
474.114258	396.890930
472.888672	387.024384
471.663086	353.414917
470.436523	333.786011
469.210938	358.846954
467.984375	360.165314
466.756836	361.483124
465.530273	344.660370
464.302734	337.610535
463.075195	376.591644
461.846680	340.253906
460.619141	356.910828
459.390625	345.682922
458.162109	351.182922
456.932617	353.894012
455.703125	369.140869
454.473633	356.527496
453.244141	368.982544
452.014648	378.648102
450.784180	374.391693
449.553711	342.307281
448.322266	361.710846
447.091797	337.988342
445.860352	354.603455
444.628906	361.479370
443.396484	372.522430
442.164062	350.207733
440.932617	368.195679
439.699219	388.954254
438.466797	387.482819
437.233398	384.623535
436.000000	383.153778
434.766602	388.624390
433.532227	405.193939
432.297852	389.847321
431.063477	406.409698
429.829102	413.257721
428.593750	411.784058
427.358398	399.221588
426.123047	424.083618
424.887695	439.235992
423.651367	437.758301
422.415039	434.896301
421.178711	445.882843
419.941406	449.942627
418.704102	451.232483
417.466797	489.886047
416.229492	463.495728
414.991211	450.949310
413.753906	528.302612
412.515625	503.303711
411.276367	511.493256
410.038086	529.354309
408.798828	538.916992
407.558594	558.146667
406.319336	582.893433
405.079102	628.344604
403.838867	643.401855
402.598633	658.452942
401.358398	658.316589
400.117188	647.141724
398.875977	673.219299
397.634766	713.078918
396.392578	717.068665
395.150391	729.329041
393.908203	715.394714
392.666016	673.903625
391.423828	733.012268
390.180664	680.514404
388.937500	698.279297
387.693359	676.104187
386.450195	629.157410
385.206055	648.298584
383.961914	608.257690
382.716797	575.112549
381.472656	554.361328
380.227539	550.122314
378.981445	569.260498
377.736328	559.521362
376.490234	534.667114
375.244141	486.461914
373.998047	490.484833
372.751953	504.121613
371.504883	472.432343
370.257812	454.486725
369.010742	483.223450
367.762695	487.243286
366.514648	458.327850
365.266602	450.003601
364.018555	454.027924
362.770508	442.965210
361.521484	438.762665
360.272461	400.290436
359.022461	426.251099
357.773438	442.609222
356.523438	438.410400
355.273438	402.708893
354.023438	390.302948
352.772461	401.178589
351.521484	410.681030
350.270508	376.382477
349.019531	376.307465
347.767578	348.870148
346.515625	367.950592
345.263672	391.126190
344.011719	360.967865
342.758789	352.694061
341.505859	366.291779
340.252930	359.386780
339.000000	371.611664
337.746094	367.440399
336.492188	341.419922
335.238281	371.391632
333.984375	363.127594
332.729492	353.502014
331.474609	330.234222
330.219727	369.735077
328.963867	354.657776
327.708984	368.226227
326.453125	354.518768
325.197266	372.171875
323.940430	370.736115
322.683594	328.418976
321.427734	339.254639
320.169922	354.172760
318.913086	347.294128
317.655273	358.119965
316.397461	351.243347
315.139648	367.508881
313.881836	352.467957
312.623047	340.154114
311.364258	338.727966
310.105469	364.504181
308.846680	354.915009
307.586914	348.048737
306.327148	343.903748
305.067383	332.965210
303.806641	354.641693
302.546875	336.912811
301.286133	364.013336
300.025391	355.795563
298.763672	350.296478
297.501953	350.229462
296.241211	348.805328
294.978516	385.376678
293.716797	363.595978
292.454102	370.308929
291.191406	352.608093
289.928711	349.829224
288.666016	329.427765
287.402344	376.804718
286.138672	346.919922
284.875000	341.434662
283.611328	334.596924
282.346680	339.951294
281.082031	345.303711
279.817383	347.946411
278.552734	341.112793
277.287109	358.642456
276.022461	339.631531
274.756836	367.977875
273.490234	338.151611
272.224609	354.316559
270.958008	342.081421
269.691406	329.850922
268.424805	323.031403
267.157227	341.890045
265.889648	339.124237
264.622070	320.149414
263.354492	348.452393
262.086914	321.380951
260.818359	329.421967
259.549805	341.509583
258.281250	330.649750
257.011719	342.732788
255.743164	341.320496
254.473633	331.815735
253.203125	330.406097
251.933594	347.873901
250.663086	357.246765
249.392578	349.094177
248.122070	369.244354
246.851562	330.103394
245.580078	334.084442
244.309570	369.042084
243.037109	347.428864
241.765625	337.940979
240.494141	367.494476
239.221680	352.622986
237.949219	361.978546
236.676758	383.439423
235.403320	364.537842
234.129883	390.025360
232.856445	387.265625
231.583008	399.295715
230.309570	360.242371
229.035156	387.056549
227.760742	407.142609
226.486328	388.261108
225.211914	429.831482
223.936523	440.498444
222.661133	414.907623
221.385742	436.313660
220.110352	432.209106
218.833984	436.158234
217.558594	432.055359
216.282227	482.957489
215.004883	481.530548
213.728516	469.375610
212.451172	494.768463
211.173828	501.384094
209.896484	532.123962
208.619141	548.111755
207.340820	582.852478
206.062500	576.051758
204.784180	589.344910
203.505859	616.025330
202.226562	618.595398
200.948242	626.519592
199.668945	630.425659
198.388672	631.653992
197.109375	659.642395
195.829102	682.270020
194.548828	672.788696
193.268555	669.997437
191.988281	676.566833
190.707031	668.428711
189.425781	708.412048
188.144531	751.054565
186.863281	736.227417
185.582031	754.803894
184.299805	838.823730
183.017578	856.041077
181.735352	895.951965
180.452148	882.448486
179.169922	951.706970
177.886719	976.901367
176.603516	1082.147705
175.320312	1124.655151
174.036133	1200.495483
172.751953	1290.980591
171.467773	1344.099243
170.183594	1413.198730
168.899414	1514.266602
167.614258	1564.656006
166.329102	1611.031128
165.043945	1811.938721
163.758789	1950.171265
162.473633	2091.021484
161.187500	2313.054932
159.901367	2556.317139
158.615234	2814.142090
157.328125	3042.599854
156.041992	3402.726562
154.754883	3728.140625
153.467773	4163.862793
152.180664	4402.588867
150.892578	4879.282715
149.604492	5053.989746
148.317383	5434.702148
147.028320	5641.163574
145.740234	5377.095703
144.452148	5349.637695
143.163086	5144.163086
141.874023	4694.342773
140.584961	4240.687012
139.294922	3769.916992
138.004883	3429.415039
136.715820	2928.400635
135.425781	2588.147461
134.134766	2313.030518
132.844727	2073.827393
131.553711	1907.665894
130.262695	1692.481689
128.971680	1587.440552
127.680664	1457.240112
126.388672	1346.968262
125.096680	1313.613647
123.804688	1220.630005
122.512695	1138.277466
121.220703	1095.698730
119.927734	1013.392944
118.634766	993.364441
117.341797	985.260986
116.048828	913.605225
114.754883	922.727539
113.461914	828.602783
112.167969	835.089233
110.874023	853.482849
109.579102	844.087463
108.285156	822.789917
106.990234	810.757507
105.695312	814.597839
104.400391	822.403748
103.105469	783.937866
101.809570	826.112793
100.514648	803.517639
99.218750	796.786133
97.921875	805.910828
96.625977	787.292786
